date,open,high,low,close
22-07-2019,16.4,16.4,15.6,16.25
23-07-2019,17.1,17.1,16.15,16.35
24-07-2019,16.15,16.45,16.0,16.15
25-07-2019,16.25,16.45,16.0,16.25
26-07-2019,15.2,17.15,15.2,16.9
29-07-2019,16.5,16.9,16.25,16.65
30-07-2019,16.9,17.5,16.15,16.35
31-07-2019,16.0,17.2,16.0,16.45
01-08-2019,16.55,16.6,15.9,16.0
02-08-2019,15.8,16.0,15.6,15.65
05-08-2019,15.1,16.5,13.8,15.1
06-08-2019,15.65,15.75,15.05,15.15
07-08-2019,15.25,15.5,15.05,15.15
08-08-2019,15.15,15.9,14.9,15.0
09-08-2019,15.0,16.5,14.8,15.75
13-08-2019,15.7,15.7,14.05,14.5
14-08-2019,14.6,14.95,14.35,14.55
16-08-2019,14.35,15.1,14.25,15.0
19-08-2019,14.95,15.05,14.3,14.45
20-08-2019,14.25,14.6,14.0,14.05
21-08-2019,13.3,14.0,13.3,13.85
22-08-2019,14.0,14.0,12.95,12.95
23-08-2019,12.7,13.5,12.65,13.1
26-08-2019,13.35,14.45,13.3,13.8
27-08-2019,13.85,14.6,13.7,13.8
28-08-2019,13.8,14.4,13.8,14.0
29-08-2019,13.5,14.0,13.4,13.75
30-08-2019,13.7,14.45,13.65,13.9
03-09-2019,14.05,14.75,13.95,14.5
04-09-2019,14.4,14.55,13.85,14.45
05-09-2019,14.15,15.0,14.15,14.55
06-09-2019,14.3,15.95,14.3,15.55
09-09-2019,15.55,16.95,15.55,16.55
11-09-2019,17.35,19.85,17.35,18.95
12-09-2019,18.95,21.45,17.65,18.8
13-09-2019,18.5,19.25,17.5,18.0
16-09-2019,17.9,18.5,17.15,18.05
17-09-2019,18.25,18.35,17.4,17.6
18-09-2019,17.5,18.85,17.25,18.0
19-09-2019,18.45,18.9,17.1,18.0
20-09-2019,17.95,18.95,17.2,18.1
23-09-2019,18.1,18.6,17.6,17.7
24-09-2019,17.75,18.05,17.3,17.55
25-09-2019,17.95,17.95,17.15,17.35
26-09-2019,17.75,20.25,17.15,19.35
27-09-2019,19.35,20.2,18.0,18.4
30-09-2019,18.2,18.75,16.5,16.9
01-10-2019,17.05,17.45,15.65,16.4
03-10-2019,15.4,16.25,15.4,15.65
04-10-2019,15.65,16.0,15.2,15.35
07-10-2019,15.3,15.75,14.85,15.3
09-10-2019,15.4,15.4,14.7,14.85
10-10-2019,14.2,15.1,14.2,14.35
11-10-2019,14.35,15.05,14.25,14.65
14-10-2019,14.95,15.2,14.2,14.45
15-10-2019,14.85,16.8,14.5,15.8
16-10-2019,15.45,17.45,15.45,17.2
17-10-2019,17.0,17.2,15.75,17.0
18-10-2019,16.9,17.4,16.25,16.95
22-10-2019,16.9,17.0,16.2,16.8
23-10-2019,16.75,17.05,16.4,16.85
24-10-2019,16.65,17.0,16.45,17.0
25-10-2019,16.95,16.95,15.8,16.3
27-10-2019,16.75,17.3,15.9,17.1
29-10-2019,16.9,17.0,16.15,16.35
30-10-2019,16.2,16.6,15.5,15.6
31-10-2019,16.45,17.95,15.5,16.4
01-11-2019,16.1,17.6,15.8,16.1
04-11-2019,16.05,16.8,15.1,15.55
05-11-2019,15.8,16.0,15.3,15.85
06-11-2019,15.65,16.25,15.5,15.5
07-11-2019,15.45,15.95,15.45,15.65
08-11-2019,15.85,15.85,15.2,15.5
11-11-2019,15.65,15.75,15.15,15.35
13-11-2019,15.65,15.65,15.05,15.1
14-11-2019,14.95,15.65,14.8,15.0
15-11-2019,15.2,15.2,14.95,15.05
18-11-2019,15.0,15.05,14.55,14.7
19-11-2019,14.8,15.1,14.55,14.8
20-11-2019,14.8,15.0,14.3,14.9
21-11-2019,14.9,14.9,14.55,14.65
22-11-2019,14.65,14.9,14.0,14.2
25-11-2019,13.95,14.8,13.95,14.25
26-11-2019,14.25,14.7,14.25,14.4
27-11-2019,14.8,14.8,14.15,14.2
28-11-2019,14.3,14.65,14.25,14.3
29-11-2019,14.5,14.85,14.15,14.3
02-12-2019,14.25,15.25,14.1,14.4
03-12-2019,14.5,14.5,14.05,14.1
04-12-2019,14.1,14.45,14.0,14.25
05-12-2019,14.25,14.4,14.1,14.2
06-12-2019,14.15,14.65,13.9,13.95
09-12-2019,14.2,14.4,13.85,13.95
10-12-2019,13.8,14.1,13.45,13.5
11-12-2019,13.35,13.4,13.1,13.15
12-12-2019,13.5,13.75,13.2,13.3
13-12-2019,13.95,13.95,13.25,13.45
16-12-2019,13.35,13.65,13.15,13.4
17-12-2019,13.6,15.1,13.6,14.2
18-12-2019,14.9,14.9,13.55,14.0
19-12-2019,13.95,14.25,13.55,14.0
20-12-2019,14.0,14.45,13.6,13.65
23-12-2019,14.5,14.5,13.3,13.6
24-12-2019,14.0,14.8,12.65,13.2
26-12-2019,13.15,13.2,12.9,13.15
27-12-2019,13.1,14.35,13.05,13.95
30-12-2019,14.1,14.2,13.35,13.85
31-12-2019,13.8,14.6,13.7,14.35
01-01-2020,14.1,14.6,13.6,13.8
02-01-2020,14.0,15.4,14.0,14.95
03-01-2020,14.95,14.95,14.45,14.7
06-01-2020,14.7,14.7,14.3,14.6
07-01-2020,14.7,14.8,14.5,14.55
08-01-2020,14.55,15.3,14.1,14.9
09-01-2020,15.25,15.25,14.4,14.5
10-01-2020,14.4,15.6,14.4,14.7
13-01-2020,14.6,15.5,14.6,14.75
14-01-2020,14.8,15.65,14.75,15.2
15-01-2020,15.0,16.4,15.0,15.3
16-01-2020,15.25,15.85,15.15,15.35
17-01-2020,15.3,17.2,15.3,16.3
20-01-2020,16.3,16.35,15.35,15.55
21-01-2020,15.35,15.95,15.3,15.8
22-01-2020,16.35,16.35,15.6,15.85
23-01-2020,15.8,16.05,15.45,15.55
24-01-2020,15.3,16.2,15.25,16.0
27-01-2020,15.9,15.9,15.35,15.45
28-01-2020,15.45,15.6,15.0,15.5
29-01-2020,15.1,15.9,14.7,14.95
30-01-2020,14.85,15.5,14.3,14.55
31-01-2020,14.55,14.9,14.1,14.35
01-02-2020,14.8,14.8,13.5,13.75
03-02-2020,13.65,14.9,13.3,13.6
04-02-2020,13.55,14.9,13.55,14.65
05-02-2020,14.9,14.9,14.1,14.45
06-02-2020,14.35,15.25,14.35,14.65
07-02-2020,14.55,14.95,14.5,14.55
10-02-2020,14.45,15.85,14.45,14.5
11-02-2020,14.45,14.95,14.0,14.15
12-02-2020,14.2,14.4,13.55,13.65
13-02-2020,13.45,14.25,13.45,13.65
14-02-2020,13.7,14.25,13.25,13.45
17-02-2020,13.55,14.0,13.5,13.6
18-02-2020,14.0,14.0,13.3,13.75
19-02-2020,13.4,14.25,13.35,13.9
20-02-2020,14.3,15.5,14.3,14.45
24-02-2020,14.1,14.8,13.6,14.0
25-02-2020,13.95,14.2,13.3,13.4
26-02-2020,13.3,14.25,13.3,13.95
27-02-2020,13.9,14.8,13.3,14.25
28-02-2020,14.0,14.05,12.9,13.65
02-03-2020,13.5,13.7,12.3,12.7
03-03-2020,12.8,13.25,12.55,12.7
04-03-2020,12.1,13.25,12.1,12.5
05-03-2020,12.5,13.0,12.45,12.55
06-03-2020,12.5,13.2,11.75,13.05
09-03-2020,13.05,13.05,12.25,12.7
11-03-2020,12.2,12.95,12.1,12.75
12-03-2020,12.15,13.5,11.5,12.1
13-03-2020,10.65,13.9,10.0,11.55
16-03-2020,12.3,12.85,10.55,12.05
17-03-2020,10.8,12.45,10.8,11.5
18-03-2020,11.55,11.65,11.0,11.1
19-03-2020,10.95,12.0,10.3,11.9
20-03-2020,12.05,12.8,11.4,12.2
23-03-2020,11.7,11.7,9.8,10.25
24-03-2020,10.2,11.35,10.0,10.2
25-03-2020,10.25,10.9,9.8,10.2
26-03-2020,10.45,11.7,10.3,11.5
27-03-2020,11.65,11.9,10.2,11.15
30-03-2020,10.9,10.95,10.25,10.55
31-03-2020,10.6,11.9,10.45,11.5
01-04-2020,11.45,11.6,11.35,11.5
03-04-2020,11.05,11.9,10.5,10.95
07-04-2020,11.25,12.8,11.15,12.65
08-04-2020,12.7,15.15,12.7,14.95
09-04-2020,16.0,16.45,13.75,14.45
13-04-2020,15.5,15.5,13.0,13.7
15-04-2020,13.65,13.75,13.4,13.45
16-04-2020,13.5,13.75,12.6,13.65
17-04-2020,13.75,14.0,13.3,13.7
20-04-2020,13.95,14.05,13.05,13.3
21-04-2020,13.2,13.6,12.75,12.95
22-04-2020,12.75,12.75,12.15,12.5
23-04-2020,12.5,13.35,12.5,13.0
24-04-2020,12.7,13.7,12.35,12.65
27-04-2020,12.35,13.2,12.35,12.6
28-04-2020,12.85,13.0,12.45,12.65
29-04-2020,12.5,12.85,12.5,12.55
30-04-2020,12.8,12.8,12.45,12.7
04-05-2020,12.5,12.95,12.25,12.9
05-05-2020,12.8,12.85,12.35,12.45
06-05-2020,12.9,12.9,12.5,12.5
07-05-2020,12.5,13.4,12.2,12.45
08-05-2020,12.3,12.9,11.95,12.4
11-05-2020,12.35,12.8,12.05,12.45
12-05-2020,12.0,12.4,11.8,12.2
13-05-2020,12.65,12.65,12.1,12.15
14-05-2020,12.0,12.4,12.0,12.15
15-05-2020,12.6,12.6,11.7,12.0
18-05-2020,11.9,12.25,11.6,12.05
19-05-2020,12.0,12.2,11.6,11.65
20-05-2020,11.6,12.1,11.0,11.7
21-05-2020,11.7,12.0,11.6,11.95
22-05-2020,11.9,12.4,11.4,11.9
26-05-2020,12.4,12.4,11.65,12.15
27-05-2020,12.2,12.35,11.7,12.35
28-05-2020,12.65,12.65,11.75,11.9
29-05-2020,12.15,12.65,10.35,11.65
01-06-2020,11.3,12.25,11.3,12.1
02-06-2020,12.0,12.5,11.85,12.1
03-06-2020,12.2,12.5,11.75,11.8
04-06-2020,11.8,12.0,11.75,11.95
05-06-2020,11.9,12.3,11.85,12.25
08-06-2020,12.25,12.8,11.8,12.0
09-06-2020,12.1,12.5,11.9,12.0
10-06-2020,11.7,12.6,11.7,11.9
11-06-2020,12.0,12.3,11.85,12.05
12-06-2020,11.95,12.2,11.65,12.1
15-06-2020,12.5,12.5,11.85,12.15
16-06-2020,12.0,12.35,11.85,12.0
17-06-2020,12.0,12.25,11.75,12.1
18-06-2020,12.3,12.75,11.75,12.65
19-06-2020,12.75,14.85,12.6,14.0
22-06-2020,14.15,15.25,13.9,14.25
23-06-2020,14.3,15.2,14.05,14.65
24-06-2020,14.65,16.45,14.4,15.9
25-06-2020,15.8,16.7,15.2,15.45
26-06-2020,15.4,16.35,14.8,14.95
29-06-2020,15.0,16.4,14.55,16.15
30-06-2020,16.8,17.5,15.7,16.1
01-07-2020,16.1,16.75,15.3,16.0
02-07-2020,16.0,16.8,16.0,16.15
03-07-2020,16.15,16.8,15.4,15.5
06-07-2020,15.5,16.0,15.25,15.6
07-07-2020,15.95,15.95,14.85,15.4
08-07-2020,15.4,15.85,14.9,15.1
09-07-2020,15.75,16.2,15.05,15.2
10-07-2020,15.25,15.6,14.55,14.95
13-07-2020,15.45,15.45,15.0,15.05
14-07-2020,15.3,15.3,14.65,14.8
15-07-2020,15.25,15.4,14.6,14.85
16-07-2020,14.85,15.1,13.8,14.2
17-07-2020,14.45,14.7,14.2,14.35
20-07-2020,14.6,14.9,14.5,14.55
21-07-2020,14.35,15.1,14.2,14.25
22-07-2020,14.85,14.85,14.15,14.45
23-07-2020,14.45,17.3,14.35,17.25
24-07-2020,16.75,16.85,15.65,16.1
27-07-2020,16.4,16.9,15.85,16.1
28-07-2020,16.65,16.65,15.8,15.9
29-07-2020,15.8,17.3,15.5,16.45
30-07-2020,16.95,17.0,15.7,16.0
31-07-2020,16.25,16.95,16.0,16.6
03-08-2020,16.6,16.6,15.6,16.0
04-08-2020,15.95,16.7,15.85,16.15
05-08-2020,16.25,16.55,16.05,16.15
06-08-2020,16.0,16.55,16.0,16.15
07-08-2020,16.15,16.25,15.85,16.1
10-08-2020,16.5,16.5,15.75,15.9
11-08-2020,16.1,16.1,15.6,15.75
12-08-2020,15.75,16.0,15.65,15.9
13-08-2020,16.0,16.1,15.65,15.75
14-08-2020,15.95,16.95,15.75,15.9
17-08-2020,15.9,16.25,15.5,15.85
18-08-2020,15.9,16.3,15.6,15.9
19-08-2020,15.9,16.3,15.75,15.85
20-08-2020,15.9,15.9,15.5,15.55
21-08-2020,15.8,16.2,15.55,15.6
24-08-2020,15.5,15.9,15.05,15.4
25-08-2020,15.7,15.7,15.15,15.2
26-08-2020,15.45,15.5,14.8,15.25
27-08-2020,15.5,15.5,15.1,15.2
28-08-2020,15.65,15.65,15.15,15.2
31-08-2020,15.45,15.45,14.2,14.45
01-09-2020,14.0,15.4,13.75,14.65
02-09-2020,15.4,15.4,14.1,14.45
03-09-2020,14.75,14.75,14.1,14.25
04-09-2020,14.0,14.9,13.75,13.9
07-09-2020,13.85,14.15,13.75,13.9
08-09-2020,14.0,14.5,13.7,14.0
09-09-2020,13.85,14.05,13.3,13.95
10-09-2020,13.85,14.35,13.7,14.1
11-09-2020,14.3,14.3,13.85,13.95
14-09-2020,13.95,14.25,13.8,13.85
15-09-2020,13.85,13.95,13.2,13.45
16-09-2020,13.75,15.95,13.55,14.75
17-09-2020,15.2,15.2,14.0,14.3
18-09-2020,14.25,15.15,14.1,14.3
21-09-2020,14.15,15.2,13.8,14.1
22-09-2020,13.95,14.15,13.6,13.95
23-09-2020,13.65,14.45,13.65,13.85
24-09-2020,14.65,14.65,13.0,13.55
25-09-2020,13.75,14.4,13.55,13.95
28-09-2020,14.7,14.7,13.75,13.8
29-09-2020,14.3,14.35,13.55,13.7
30-09-2020,13.75,13.85,13.55,13.6
01-10-2020,13.85,14.0,13.0,13.2
05-10-2020,13.7,13.7,13.2,13.25
06-10-2020,13.5,13.7,13.2,13.5
07-10-2020,13.5,13.75,13.2,13.3
08-10-2020,13.45,14.0,13.1,13.3
09-10-2020,13.35,13.6,13.25,13.4
12-10-2020,13.3,13.35,13.2,13.25
13-10-2020,13.25,13.45,13.1,13.2
14-10-2020,13.05,13.05,12.35,12.75
15-10-2020,13.45,13.45,12.75,12.85
16-10-2020,13.25,13.25,12.55,12.9
19-10-2020,12.85,13.45,12.7,12.85
20-10-2020,13.45,13.5,12.9,13.0
21-10-2020,12.95,13.3,12.65,12.95
22-10-2020,13.05,13.25,12.7,12.8
23-10-2020,13.0,13.15,12.9,12.9
26-10-2020,13.1,13.3,12.85,13.0
27-10-2020,12.9,13.2,12.6,12.7
28-10-2020,12.7,12.9,12.5,12.7
29-10-2020,12.6,12.85,12.5,12.6
30-10-2020,12.6,12.95,12.4,12.65
02-11-2020,12.75,12.8,12.4,12.6
03-11-2020,12.55,12.8,12.4,12.4
04-11-2020,12.45,12.8,12.25,12.4
05-11-2020,12.4,12.7,12.4,12.65
06-11-2020,12.95,13.1,12.5,12.7
09-11-2020,12.8,12.8,12.2,12.3
10-11-2020,12.25,12.6,12.15,12.5
11-11-2020,12.85,12.85,12.3,12.5
12-11-2020,12.4,12.75,12.4,12.5
13-11-2020,12.65,12.8,12.5,12.6
14-11-2020,13.0,13.0,12.35,12.6
17-11-2020,12.55,12.75,12.4,12.55
18-11-2020,12.55,13.05,12.5,12.65
19-11-2020,12.65,13.8,12.4,12.8
20-11-2020,13.3,13.8,13.05,13.55
23-11-2020,13.4,14.05,13.1,13.7
24-11-2020,13.5,13.9,13.1,13.3
25-11-2020,13.35,13.8,13.15,13.2
26-11-2020,13.6,13.6,13.05,13.2
27-11-2020,13.1,13.65,13.05,13.35
01-12-2020,13.15,15.2,13.15,14.25
02-12-2020,14.8,15.3,14.15,14.35
03-12-2020,14.4,15.1,14.4,14.65
04-12-2020,14.85,14.9,13.95,14.05
07-12-2020,14.8,15.2,14.15,14.75
08-12-2020,14.9,15.0,14.2,14.7
09-12-2020,14.6,15.0,14.6,14.8
10-12-2020,14.55,14.7,14.0,14.25
11-12-2020,14.35,14.8,14.25,14.45
14-12-2020,14.85,14.85,14.2,14.5
15-12-2020,14.45,14.7,14.3,14.35
16-12-2020,14.7,14.7,14.35,14.5
17-12-2020,14.7,16.95,14.35,16.0
18-12-2020,16.2,16.2,15.0,15.65
21-12-2020,15.95,16.5,15.05,15.25
22-12-2020,14.8,15.4,14.1,15.25
23-12-2020,15.05,15.55,15.0,15.35
24-12-2020,15.3,16.5,15.05,15.65
28-12-2020,15.5,16.05,15.25,15.6
29-12-2020,15.6,15.9,15.0,15.2
30-12-2020,15.4,15.9,15.2,15.35
31-12-2020,15.35,17.25,15.35,16.3
01-01-2021,16.75,16.75,16.1,16.2
04-01-2021,16.7,16.7,16.05,16.2
05-01-2021,16.15,16.35,15.65,15.95
06-01-2021,15.8,16.1,15.4,15.55
07-01-2021,15.9,16.1,15.5,15.75
08-01-2021,15.75,16.3,15.5,15.6
11-01-2021,15.5,15.7,14.8,14.9
12-01-2021,15.2,15.2,14.8,14.9
13-01-2021,15.4,15.4,14.2,14.7
14-01-2021,14.7,15.15,14.7,15.1
15-01-2021,15.15,16.7,14.8,15.7
18-01-2021,16.0,16.1,15.1,15.35
19-01-2021,15.25,15.6,15.15,15.25
20-01-2021,15.6,16.5,15.6,15.8
21-01-2021,15.95,16.0,15.2,15.3
22-01-2021,15.2,15.5,14.5,14.65
25-01-2021,14.75,14.95,14.5,14.8
27-01-2021,14.8,14.9,14.65,14.7
28-01-2021,14.5,14.8,14.4,14.55
29-01-2021,14.8,15.1,14.65,14.75
01-02-2021,15.0,15.0,14.5,14.55
02-02-2021,14.8,14.9,14.5,14.7
03-02-2021,14.85,14.85,14.5,14.55
04-02-2021,14.7,15.45,14.5,15.1
05-02-2021,15.1,15.3,14.65,14.75
08-02-2021,14.45,15.0,14.45,14.65
09-02-2021,14.6,14.8,14.5,14.55
10-02-2021,14.45,14.7,14.3,14.45
11-02-2021,14.65,14.75,14.45,14.55
12-02-2021,14.5,14.7,14.3,14.35
15-02-2021,14.5,14.5,14.3,14.3
16-02-2021,14.3,14.55,14.15,14.45
17-02-2021,14.7,14.7,14.25,14.35
18-02-2021,14.35,14.5,14.1,14.2
19-02-2021,14.2,14.75,14.1,14.2
22-02-2021,14.5,14.5,13.95,14.0
23-02-2021,14.05,14.2,13.9,13.95
24-02-2021,14.0,15.4,14.0,14.7
25-02-2021,15.15,15.15,14.35,14.5
26-02-2021,14.4,14.65,14.2,14.45
01-03-2021,14.6,14.65,14.3,14.55
02-03-2021,14.65,15.65,14.2,15.25
03-03-2021,15.45,18.3,15.3,16.55
04-03-2021,16.45,16.45,15.8,15.95
05-03-2021,16.3,17.3,15.8,16.85
08-03-2021,17.4,17.5,16.85,17.0
09-03-2021,17.25,20.4,16.9,18.65
10-03-2021,18.6,19.55,17.65,18.15
12-03-2021,18.8,19.0,16.85,17.2
15-03-2021,17.5,17.75,16.45,16.95
16-03-2021,17.3,17.75,16.5,16.75
17-03-2021,16.75,17.0,16.3,16.35
18-03-2021,16.45,16.7,15.55,15.95
19-03-2021,15.25,16.5,15.1,16.05
22-03-2021,16.05,16.05,15.55,15.8
23-03-2021,16.3,16.9,15.75,15.95
24-03-2021,15.95,16.2,15.1,15.3
25-03-2021,15.3,18.0,15.05,16.05
26-03-2021,16.2,16.75,15.45,15.95
30-03-2021,15.95,17.15,15.95,16.9
31-03-2021,16.9,17.35,16.45,16.65
01-04-2021,16.65,17.3,16.55,16.8
05-04-2021,16.95,16.95,15.65,16.2
06-04-2021,16.05,16.5,15.95,16.0
07-04-2021,16.05,16.5,15.85,15.9
08-04-2021,15.95,16.4,15.8,15.9
09-04-2021,15.8,16.0,15.3,15.55
12-04-2021,15.4,15.5,14.95,15.05
13-04-2021,14.7,15.3,14.7,15.05
15-04-2021,15.05,15.25,14.7,15.1
16-04-2021,14.5,15.2,14.5,14.8
19-04-2021,15.0,15.0,13.4,14.15
20-04-2021,14.75,14.8,14.2,14.3
22-04-2021,14.05,14.7,13.9,14.65
23-04-2021,14.4,15.0,14.35,14.8
26-04-2021,15.0,15.0,14.2,14.45
27-04-2021,14.45,15.15,14.45,15.0
28-04-2021,15.15,15.7,14.85,15.3
29-04-2021,15.25,15.25,14.6,14.8
30-04-2021,14.95,15.0,14.5,14.6
03-05-2021,14.6,14.9,14.05,14.75
04-05-2021,14.95,16.9,14.75,15.85
05-05-2021,16.2,16.45,15.75,16.05
06-05-2021,16.1,16.15,15.55,15.65
07-05-2021,15.5,17.1,15.5,16.65
10-05-2021,16.65,17.5,16.25,16.55
11-05-2021,15.7,17.2,15.7,16.55
12-05-2021,16.5,17.7,15.75,15.95
14-05-2021,16.65,16.65,15.9,16.15
17-05-2021,16.55,16.55,16.05,16.2
18-05-2021,16.9,16.9,16.1,16.4
19-05-2021,16.2,16.45,15.75,16.0
20-05-2021,16.0,17.3,15.95,16.25
21-05-2021,16.5,16.8,16.25,16.55
24-05-2021,16.55,17.25,16.3,16.55
25-05-2021,16.75,16.9,16.6,16.8
26-05-2021,16.95,18.45,16.65,17.65
27-05-2021,17.65,18.25,17.2,17.5
28-05-2021,17.5,17.75,16.9,17.1
31-05-2021,18.5,19.5,18.25,18.45
01-06-2021,18.5,18.7,17.55,17.85
02-06-2021,17.6,19.7,17.6,18.85
03-06-2021,19.0,19.45,18.4,18.75
04-06-2021,18.5,19.0,18.2,18.35
07-06-2021,18.35,18.8,18.2,18.25
08-06-2021,18.3,18.6,18.0,18.3
09-06-2021,18.35,19.6,18.05,18.3
10-06-2021,18.5,19.5,18.25,18.8
11-06-2021,19.0,20.45,18.8,19.95
14-06-2021,20.25,20.25,19.1,19.25
15-06-2021,19.1,20.95,19.05,20.2
16-06-2021,20.0,20.2,19.55,19.65
17-06-2021,19.25,20.1,19.1,19.3
18-06-2021,19.15,19.7,18.3,19.0
21-06-2021,18.9,19.2,17.4,18.85
22-06-2021,18.85,19.75,18.7,18.95
23-06-2021,19.1,19.7,18.8,18.9
24-06-2021,19.25,19.4,18.6,18.7
25-06-2021,18.95,22.4,18.6,20.5
28-06-2021,20.7,21.2,19.75,20.0
29-06-2021,20.05,20.25,19.6,19.7
30-06-2021,20.15,20.7,19.75,20.55
01-07-2021,20.75,21.15,20.1,20.2
02-07-2021,20.45,20.7,19.8,19.9
05-07-2021,20.1,21.65,19.6,20.75
06-07-2021,21.15,21.8,20.4,20.6
07-07-2021,21.1,24.7,21.1,24.7
08-07-2021,24.95,24.95,22.6,22.85
09-07-2021,22.95,23.85,22.5,23.05
12-07-2021,23.0,23.4,22.3,22.6
13-07-2021,22.95,23.1,21.6,21.75
14-07-2021,21.4,22.35,21.4,21.85
15-07-2021,21.85,22.65,20.5,20.7
16-07-2021,21.0,21.7,20.4,20.65
19-07-2021,20.5,21.2,19.65,20.25
20-07-2021,20.05,20.95,18.7,20.65
22-07-2021,21.5,21.5,20.5,21.05
23-07-2021,21.25,21.85,20.5,20.65
26-07-2021,20.85,20.85,19.9,20.1
27-07-2021,19.95,23.75,19.95,22.15
28-07-2021,22.6,23.5,21.95,23.0
29-07-2021,23.25,24.1,22.6,22.75
30-07-2021,22.8,25.7,22.45,24.7
02-08-2021,27.7,27.7,25.15,25.5
03-08-2021,26.3,26.3,24.25,24.4
04-08-2021,25.2,25.2,22.85,23.1
05-08-2021,23.0,24.15,21.5,22.7
06-08-2021,22.75,23.7,22.25,22.7
09-08-2021,22.75,23.3,22.25,22.75
10-08-2021,22.85,22.85,20.55,20.85
11-08-2021,20.85,20.95,18.9,20.4
12-08-2021,20.5,21.6,20.5,20.85
13-08-2021,20.85,22.4,20.6,21.35
16-08-2021,21.15,21.5,20.0,20.3
17-08-2021,20.5,20.75,19.65,19.75
18-08-2021,19.85,20.5,19.5,19.65
20-08-2021,19.0,19.65,17.0,18.7
23-08-2021,19.2,19.5,18.2,18.4
24-08-2021,18.45,20.6,18.2,19.95
25-08-2021,20.0,20.45,19.55,19.75
26-08-2021,19.75,20.3,19.5,19.55
27-08-2021,19.55,19.75,18.5,18.9
30-08-2021,18.95,20.45,18.95,19.85
31-08-2021,20.9,20.9,19.6,19.8
01-09-2021,20.0,20.7,19.65,20.05
02-09-2021,20.1,20.4,19.7,19.8
03-09-2021,20.25,20.25,19.55,19.6
06-09-2021,19.7,19.95,19.15,19.55
07-09-2021,19.5,19.75,19.15,19.45
08-09-2021,19.75,19.75,18.9,19.05
09-09-2021,19.1,19.4,19.0,19.15
13-09-2021,19.15,19.5,18.95,19.2
14-09-2021,19.25,19.5,18.0,18.95
15-09-2021,18.7,19.35,18.7,19.05
16-09-2021,19.0,19.3,19.0,19.05
17-09-2021,19.05,19.2,18.2,18.7
20-09-2021,18.75,18.75,18.05,18.35
21-09-2021,18.35,18.65,18.35,18.45
22-09-2021,18.7,19.0,18.5,18.6
23-09-2021,18.95,19.1,18.4,18.45
24-09-2021,18.45,18.7,17.9,18.1
27-09-2021,18.2,18.95,17.7,18.6
28-09-2021,18.25,20.25,18.25,19.5
29-09-2021,19.7,19.95,19.35,19.65
30-09-2021,19.9,20.75,19.35,19.5
01-10-2021,19.5,20.0,19.1,19.6
04-10-2021,19.95,20.0,19.5,19.55
05-10-2021,19.55,21.0,19.35,20.5
06-10-2021,20.9,21.1,19.5,19.7
07-10-2021,20.0,20.8,19.75,19.95
08-10-2021,20.05,20.9,20.05,20.25
11-10-2021,20.45,22.15,20.05,21.25
12-10-2021,21.4,22.1,21.05,21.8
13-10-2021,22.0,22.0,21.05,21.25
14-10-2021,21.5,21.5,20.6,20.9
18-10-2021,20.95,20.95,20.05,20.15
19-10-2021,20.4,20.4,19.2,19.55
20-10-2021,19.6,19.75,19.1,19.15
21-10-2021,19.2,19.9,19.2,19.6
22-10-2021,19.75,20.15,19.05,19.25
25-10-2021,19.2,19.3,18.55,18.95
26-10-2021,19.0,19.95,18.35,19.15
27-10-2021,19.25,20.2,19.2,19.6
28-10-2021,19.65,19.95,18.75,18.85
29-10-2021,18.9,19.35,18.6,18.8
01-11-2021,19.5,19.5,18.9,19.0
02-11-2021,19.4,19.4,18.75,18.95
03-11-2021,19.0,19.25,18.65,18.9
04-11-2021,19.25,19.3,19.0,19.05
08-11-2021,19.0,19.25,19.0,19.05
09-11-2021,19.05,19.25,19.05,19.05
10-11-2021,19.05,19.25,18.85,18.95
11-11-2021,18.6,19.2,18.6,18.8
12-11-2021,18.75,22.35,18.75,21.95
15-11-2021,21.55,21.55,19.8,20.05
16-11-2021,20.0,20.15,19.75,19.85
17-11-2021,19.8,21.6,19.75,20.15
18-11-2021,20.5,20.5,19.75,19.95
22-11-2021,19.75,20.75,18.8,19.25
23-11-2021,19.0,19.6,18.8,19.15
24-11-2021,19.15,19.7,18.9,19.2
25-11-2021,19.2,19.5,19.0,19.35
26-11-2021,18.05,19.65,18.05,19.05
29-11-2021,19.1,19.2,18.05,18.85
30-11-2021,18.6,19.45,18.6,18.75
01-12-2021,18.8,19.25,18.35,18.6
02-12-2021,18.9,18.95,18.6,18.9
03-12-2021,19.1,19.1,18.55,18.65
06-12-2021,18.65,19.0,18.5,18.8
07-12-2021,18.65,19.0,18.6,18.8
08-12-2021,18.85,21.2,18.75,20.35
09-12-2021,20.55,21.0,20.25,20.35
10-12-2021,20.35,20.95,20.0,20.6
13-12-2021,21.0,21.0,19.8,20.05
14-12-2021,20.2,22.0,19.9,21.4
15-12-2021,21.65,21.65,20.1,20.35
16-12-2021,20.7,20.7,20.05,20.15
17-12-2021,20.05,20.05,18.95,19.25
20-12-2021,18.95,18.95,17.05,17.95
21-12-2021,18.15,18.75,17.85,18.35
22-12-2021,18.35,19.55,18.1,18.95
23-12-2021,19.6,19.8,18.8,19.0
24-12-2021,19.35,19.35,17.85,18.25
27-12-2021,18.4,18.8,18.0,18.5
28-12-2021,18.5,19.45,18.5,19.2
29-12-2021,19.5,20.45,18.8,19.5
30-12-2021,19.5,21.45,19.5,20.45
31-12-2021,20.8,20.8,20.1,20.2
03-01-2022,20.25,21.35,20.1,20.55
04-01-2022,21.0,22.85,20.45,21.45
05-01-2022,21.4,22.25,21.15,21.85
06-01-2022,21.65,21.95,21.1,21.6
07-01-2022,21.85,22.4,20.75,20.85
10-01-2022,21.15,22.75,20.9,22.1
11-01-2022,22.3,22.3,21.05,21.25
12-01-2022,21.5,22.3,21.4,21.75
13-01-2022,22.0,22.0,21.05,21.2
14-01-2022,21.4,21.95,21.05,21.35
17-01-2022,21.2,21.9,21.2,21.55
18-01-2022,21.55,21.9,20.8,21.05
19-01-2022,21.35,21.5,19.6,20.6
20-01-2022,20.6,21.25,20.35,20.7
21-01-2022,20.25,20.85,20.05,20.3
24-01-2022,20.0,20.3,19.05,19.25
25-01-2022,19.15,19.5,18.9,19.2
27-01-2022,19.0,19.85,18.75,19.75
28-01-2022,20.25,20.6,19.55,19.65
31-01-2022,20.05,20.05,19.55,19.7
01-02-2022,19.9,20.4,19.25,19.5
02-02-2022,19.55,21.35,19.55,20.75
03-02-2022,21.2,21.5,20.4,20.6
04-02-2022,20.95,21.1,20.1,20.6
07-02-2022,20.85,20.85,20.0,20.1
08-02-2022,20.1,20.2,19.35,19.85
09-02-2022,19.9,20.5,19.65,19.75
10-02-2022,19.95,19.95,19.55,19.7
11-02-2022,19.6,19.95,19.5,19.65
14-02-2022,19.05,19.85,18.7,18.85
15-02-2022,18.7,19.25,18.35,18.95
16-02-2022,19.6,20.9,19.05,20.05
17-02-2022,19.9,20.5,19.05,19.2
18-02-2022,19.0,19.4,18.8,18.85
21-02-2022,19.2,19.2,18.15,18.4
22-02-2022,18.0,18.45,17.25,18.15
23-02-2022,18.35,18.75,18.05,18.3
24-02-2022,17.8,17.8,16.55,16.85
25-02-2022,17.15,18.3,17.15,17.75
28-02-2022,17.75,18.25,16.2,17.9
02-03-2022,17.95,18.2,17.5,17.8
03-03-2022,17.85,18.25,17.3,17.55
04-03-2022,17.55,17.8,17.1,17.15
07-03-2022,17.4,17.4,16.6,16.85
08-03-2022,17.2,17.2,16.85,17.1
09-03-2022,16.9,17.7,16.9,17.55
10-03-2022,17.6,18.0,17.2,17.5
11-03-2022,17.9,18.9,17.55,18.55
14-03-2022,18.55,19.3,18.55,18.7
15-03-2022,18.85,19.45,18.35,18.6
16-03-2022,18.5,20.3,18.5,19.6
17-03-2022,19.85,20.1,19.2,19.5
21-03-2022,19.8,19.8,18.15,18.2
22-03-2022,18.45,18.45,17.65,17.9
23-03-2022,17.85,18.25,17.65,17.8
24-03-2022,17.8,18.5,17.6,17.8
25-03-2022,17.95,18.2,17.5,17.75
28-03-2022,17.95,17.95,17.3,17.4
29-03-2022,17.5,18.0,16.9,17.0
30-03-2022,17.15,17.6,17.1,17.15
31-03-2022,17.15,17.45,16.9,17.05
01-04-2022,17.0,17.95,17.0,17.7
04-04-2022,18.2,18.4,18.0,18.2
05-04-2022,18.6,19.3,18.1,18.85
06-04-2022,18.85,19.4,18.35,18.8
07-04-2022,18.9,21.3,18.9,20.35
08-04-2022,20.7,21.05,20.2,20.5
11-04-2022,20.85,20.9,19.45,19.6
12-04-2022,19.6,19.75,18.95,19.3
13-04-2022,19.3,20.2,19.2,19.65
18-04-2022,19.0,20.8,18.85,19.8
19-04-2022,20.05,21.9,19.3,20.05
20-04-2022,20.25,20.85,19.45,19.95
21-04-2022,19.75,21.65,19.7,21.25
22-04-2022,21.3,21.5,20.55,20.6
25-04-2022,20.7,20.8,19.6,19.65
26-04-2022,19.7,20.5,19.5,19.65
27-04-2022,19.5,19.7,19.0,19.2
28-04-2022,19.95,19.95,18.85,19.05
29-04-2022,19.4,19.4,18.8,18.85
02-05-2022,18.8,19.1,18.75,18.95
04-05-2022,18.55,19.0,18.15,18.4
05-05-2022,18.45,18.65,17.8,18.1
06-05-2022,18.4,18.5,17.6,17.75
09-05-2022,17.45,17.65,16.7,17.1
10-05-2022,17.2,17.95,17.1,17.4
11-05-2022,17.75,17.75,16.25,17.15
12-05-2022,17.15,17.15,16.4,16.7
13-05-2022,17.0,17.45,16.15,16.6
16-05-2022,16.95,17.85,16.95,17.25
17-05-2022,17.25,17.95,17.25,17.8
18-05-2022,17.5,18.5,17.45,17.55
19-05-2022,17.8,17.95,16.9,17.15
20-05-2022,17.5,17.8,17.3,17.7
23-05-2022,17.95,17.95,17.1,17.2
24-05-2022,17.1,17.35,16.85,17.0
25-05-2022,17.2,17.2,16.4,16.7
26-05-2022,16.75,17.2,16.15,16.45
27-05-2022,16.45,17.2,16.45,16.85
30-05-2022,16.85,17.3,16.75,17.0
31-05-2022,17.05,17.05,16.55,16.75
01-06-2022,16.75,17.1,16.65,16.7
02-06-2022,16.7,16.85,16.25,16.55
03-06-2022,16.9,16.9,16.0,16.15
06-06-2022,16.45,16.45,16.15,16.3
07-06-2022,16.3,16.5,16.15,16.2
08-06-2022,16.2,16.65,16.1,16.2
09-06-2022,15.9,16.4,15.9,16.1
10-06-2022,16.0,16.25,15.95,16.05
13-06-2022,15.45,16.1,15.45,15.55
14-06-2022,15.8,16.45,15.55,15.85
15-06-2022,16.0,16.15,15.55,15.6
16-06-2022,15.4,15.95,15.4,15.5
17-06-2022,15.5,15.6,15.2,15.25
20-06-2022,15.25,15.5,14.3,14.75
21-06-2022,14.75,15.25,14.6,14.95
22-06-2022,14.7,15.8,14.6,14.85
23-06-2022,14.7,15.6,14.65,15.2
24-06-2022,14.9,15.7,14.8,15.3
27-06-2022,15.1,15.7,15.0,15.45
28-06-2022,15.45,15.7,15.1,15.45
29-06-2022,15.15,15.9,15.0,15.4
30-06-2022,15.2,15.7,15.2,15.3
01-07-2022,15.25,15.7,15.25,15.4
04-07-2022,15.8,15.8,15.45,15.55
05-07-2022,15.55,17.1,15.35,16.15
06-07-2022,16.5,16.5,16.0,16.05
07-07-2022,16.05,16.45,16.0,16.1
08-07-2022,15.75,16.45,15.75,16.1
11-07-2022,15.9,16.5,15.75,16.1
12-07-2022,16.05,16.4,15.55,16.0
13-07-2022,16.35,16.65,16.15,16.2
14-07-2022,16.05,16.5,15.75,15.8
15-07-2022,16.0,16.2,15.8,15.9
18-07-2022,16.2,16.3,15.85,16.15
19-07-2022,15.9,16.5,15.9,16.2
20-07-2022,16.5,16.65,16.05,16.25
21-07-2022,16.15,16.25,16.0,16.05
22-07-2022,16.0,16.3,16.0,16.05
25-07-2022,16.1,16.2,15.75,15.85
26-07-2022,15.75,16.1,15.75,15.85
27-07-2022,15.85,16.4,15.85,15.95
28-07-2022,15.85,16.25,15.8,15.85
29-07-2022,15.85,16.2,15.8,15.85
01-08-2022,16.4,16.7,16.05,16.5
02-08-2022,16.4,17.25,16.4,16.95
03-08-2022,16.75,16.9,16.3,16.45
04-08-2022,16.5,16.9,16.15,16.65
05-08-2022,16.65,16.75,16.3,16.4
08-08-2022,16.35,16.8,16.05,16.35
10-08-2022,16.35,17.2,16.05,16.6
11-08-2022,16.95,16.95,16.05,16.25
12-08-2022,16.25,16.5,16.2,16.3
16-08-2022,16.45,16.55,16.1,16.35
17-08-2022,16.55,16.75,16.4,16.6
18-08-2022,16.6,16.7,16.4,16.55
19-08-2022,16.75,16.95,16.45,16.65
22-08-2022,16.25,16.7,16.15,16.15
23-08-2022,16.4,16.9,16.35,16.35
24-08-2022,16.7,17.2,16.5,16.75
25-08-2022,17.15,17.2,16.75,16.8
26-08-2022,16.9,17.3,16.75,17.05
29-08-2022,16.9,17.45,16.6,16.95
30-08-2022,17.3,17.3,16.85,17.0
01-09-2022,17.1,17.3,16.8,17.0
02-09-2022,17.0,17.1,16.7,16.8
05-09-2022,16.8,17.1,16.6,16.7
06-09-2022,16.95,17.45,16.7,16.8
07-09-2022,16.95,17.1,16.65,16.7
08-09-2022,16.95,18.2,16.7,17.75
09-09-2022,17.95,18.35,17.75,17.8
12-09-2022,18.0,18.05,17.1,17.4
13-09-2022,17.75,17.95,17.4,17.85
14-09-2022,17.95,17.95,16.5,17.55
15-09-2022,17.8,17.9,16.95,17.2
16-09-2022,16.9,17.2,16.6,16.8
19-09-2022,17.3,17.3,16.6,16.65
20-09-2022,16.85,17.0,16.65,16.75
21-09-2022,16.75,16.95,16.25,16.4
22-09-2022,16.4,16.6,16.4,16.5
23-09-2022,16.95,16.95,15.8,16.0
26-09-2022,16.1,16.1,15.2,15.35
27-09-2022,15.85,15.85,15.4,15.7
28-09-2022,15.5,16.2,15.3,15.7
29-09-2022,15.75,15.9,15.4,15.55
30-09-2022,15.3,15.8,15.3,15.5
03-10-2022,15.5,15.75,15.05,15.3
04-10-2022,15.75,15.75,15.15,15.55
06-10-2022,15.55,16.3,15.3,16.2
07-10-2022,16.5,16.5,15.9,16.15
10-10-2022,15.9,16.3,15.85,16.2
11-10-2022,16.2,16.2,16.0,16.1
12-10-2022,16.45,16.45,15.9,16.0
13-10-2022,16.0,16.3,15.75,15.9
14-10-2022,15.95,16.25,15.85,16.0
17-10-2022,16.2,16.2,15.1,15.5
18-10-2022,15.55,15.85,15.25,15.5
19-10-2022,15.8,15.8,15.45,15.5
20-10-2022,15.45,15.65,15.3,15.45
21-10-2022,15.45,15.7,15.25,15.35
24-10-2022,15.65,15.65,15.15,15.6
25-10-2022,15.65,15.7,15.35,15.45
27-10-2022,15.45,15.95,15.25,15.45
28-10-2022,15.75,16.05,15.4,15.95
31-10-2022,15.7,16.25,15.7,15.8
01-11-2022,15.65,16.0,15.6,15.75
02-11-2022,16.0,16.0,15.5,15.55
03-11-2022,15.55,15.7,15.3,15.35
04-11-2022,15.7,16.25,15.35,16.0
07-11-2022,16.0,16.25,15.8,16.05
09-11-2022,16.25,17.0,15.8,16.25
10-11-2022,16.25,16.95,16.25,16.4
11-11-2022,16.4,16.75,15.75,15.95
14-11-2022,15.95,16.1,15.75,15.75
15-11-2022,15.8,15.95,15.5,15.6
16-11-2022,15.55,15.75,15.35,15.45
17-11-2022,15.5,15.8,15.3,15.6
18-11-2022,15.6,15.75,15.4,15.4
21-11-2022,15.3,15.55,15.0,15.1
22-11-2022,15.1,15.45,15.1,15.25
23-11-2022,15.25,15.6,15.1,15.3
24-11-2022,15.6,15.6,15.25,15.4
25-11-2022,15.45,15.8,15.25,15.6
28-11-2022,15.75,15.85,15.35,15.4
29-11-2022,15.8,15.8,15.15,15.6
30-11-2022,15.6,15.7,15.35,15.45
01-12-2022,15.45,15.7,14.85,15.1
02-12-2022,15.15,15.3,15.0,15.1
05-12-2022,15.1,15.6,15.1,15.35
06-12-2022,15.35,15.55,15.05,15.15
07-12-2022,15.35,15.35,15.05,15.2
08-12-2022,15.2,15.3,15.05,15.25
09-12-2022,15.15,15.4,15.05,15.05
12-12-2022,15.55,15.55,14.8,15.05
13-12-2022,15.05,17.0,15.05,16.1
14-12-2022,16.3,16.45,16.0,16.1
15-12-2022,16.2,16.2,14.35,15.3
16-12-2022,15.45,15.7,15.1,15.3
19-12-2022,15.7,16.3,15.15,15.9
20-12-2022,15.9,17.5,15.7,16.5
21-12-2022,16.75,17.0,15.15,15.3
22-12-2022,15.15,15.65,14.8,15.05
23-12-2022,15.0,15.0,14.4,14.5
26-12-2022,14.5,15.15,14.5,15.0
27-12-2022,14.9,15.4,14.9,15.1
28-12-2022,15.4,15.5,15.1,15.25
29-12-2022,15.05,15.6,15.0,15.2
30-12-2022,15.5,15.95,15.1,15.4
02-01-2023,15.6,16.3,15.35,16.15
03-01-2023,16.15,16.3,15.65,16.1
04-01-2023,16.15,16.15,15.6,15.65
05-01-2023,15.7,15.95,15.5,15.65
06-01-2023,15.65,15.95,15.65,15.65
09-01-2023,15.95,16.0,15.25,15.5
10-01-2023,15.5,15.75,15.15,15.3
11-01-2023,15.5,15.9,15.4,15.4
12-01-2023,15.5,15.75,15.2,15.3
13-01-2023,15.25,15.45,15.25,15.35
16-01-2023,15.35,15.65,15.2,15.3
17-01-2023,15.2,15.55,15.2,15.4
18-01-2023,15.7,15.7,15.2,15.25
19-01-2023,15.2,15.5,14.95,15.1
20-01-2023,15.1,15.45,15.1,15.2
23-01-2023,15.45,15.45,15.1,15.1
24-01-2023,15.15,15.3,14.8,14.95
25-01-2023,14.9,15.0,14.65,14.8
27-01-2023,14.8,14.85,14.2,14.3
30-01-2023,14.35,14.7,14.25,14.3
31-01-2023,14.25,14.5,14.25,14.3
01-02-2023,14.5,14.5,13.9,14.05
02-02-2023,14.0,14.25,13.95,14.1
03-02-2023,14.35,14.35,13.6,13.85
06-02-2023,13.8,14.25,13.6,13.65
07-02-2023,13.75,14.0,13.55,13.65
08-02-2023,14.0,14.0,13.65,13.8
09-02-2023,13.8,14.0,13.65,13.9
10-02-2023,13.9,14.1,13.75,13.8
13-02-2023,13.65,13.9,13.6,13.65
14-02-2023,13.8,13.85,13.3,13.55
15-02-2023,13.55,13.55,13.25,13.3
16-02-2023,13.3,13.5,13.2,13.3
17-02-2023,13.5,13.55,13.45,13.5
20-02-2023,13.9,13.9,13.35,13.4
21-02-2023,13.6,13.6,13.15,13.2
22-02-2023,13.35,13.5,12.85,13.3
23-02-2023,13.5,13.5,13.05,13.1
24-02-2023,13.3,13.3,12.9,13.0
27-02-2023,12.95,13.25,11.1,11.45
28-02-2023,11.7,11.8,10.8,11.6
01-03-2023,11.55,12.6,11.5,12.35
02-03-2023,12.35,12.95,12.35,12.85
03-03-2023,12.95,13.0,12.5,12.7
06-03-2023,12.4,12.9,12.35,12.75
08-03-2023,12.75,12.85,12.6,12.75
09-03-2023,12.95,13.0,12.5,12.65
10-03-2023,12.5,12.65,11.45,11.65
13-03-2023,11.9,11.9,11.2,11.25
14-03-2023,11.4,11.55,11.2,11.4
15-03-2023,11.7,11.8,11.05,11.5
16-03-2023,11.4,11.65,11.2,11.4
17-03-2023,11.7,11.85,11.15,11.4
20-03-2023,11.0,11.6,10.85,11.0
21-03-2023,11.0,11.2,10.95,11.0
22-03-2023,11.0,11.2,10.65,10.9
23-03-2023,10.85,11.35,10.85,11.0
24-03-2023,10.9,11.15,10.7,10.7
27-03-2023,10.8,10.9,10.35,10.4
28-03-2023,10.9,10.9,10.4,10.6
29-03-2023,10.5,11.1,10.45,10.55
31-03-2023,10.6,11.75,10.55,11.15
03-04-2023,11.4,13.2,11.15,12.9
05-04-2023,13.0,13.2,11.6,12.1
06-04-2023,12.45,12.45,11.5,12.05
10-04-2023,12.5,12.5,11.5,11.85
11-04-2023,12.25,13.35,11.7,13.1
12-04-2023,13.25,13.45,12.55,12.75
13-04-2023,12.75,13.45,12.55,13.0
17-04-2023,13.3,13.3,12.55,12.65
18-04-2023,12.8,13.0,12.65,12.9
19-04-2023,13.0,13.0,12.5,12.6
20-04-2023,12.6,12.8,12.5,12.55
21-04-2023,12.6,12.6,12.05,12.2
24-04-2023,12.2,12.7,11.95,12.35
25-04-2023,12.35,12.65,12.2,12.5
26-04-2023,12.7,12.7,12.25,12.55
27-04-2023,12.35,12.8,12.35,12.7
28-04-2023,12.75,12.85,12.55,12.75
02-05-2023,12.75,12.9,12.6,12.7
03-05-2023,12.7,12.95,12.35,12.85
04-05-2023,12.85,13.35,12.6,12.9
05-05-2023,12.95,13.0,12.7,12.85
08-05-2023,12.95,14.25,12.8,13.8
09-05-2023,13.8,14.0,13.5,13.5
10-05-2023,13.5,13.5,13.1,13.1
11-05-2023,13.1,13.4,13.1,13.2
12-05-2023,13.4,13.4,13.0,13.05
15-05-2023,13.1,13.7,13.05,13.25
16-05-2023,13.45,13.45,13.05,13.1
17-05-2023,13.05,13.2,12.8,12.85
18-05-2023,13.0,13.2,12.75,12.8
19-05-2023,12.95,13.0,12.7,12.95
22-05-2023,12.95,13.0,12.6,12.95
23-05-2023,13.05,13.05,12.75,12.8
24-05-2023,12.8,13.45,12.7,13.3
25-05-2023,13.3,13.9,13.05,13.55
26-05-2023,13.55,13.95,13.35,13.55
29-05-2023,13.6,13.9,13.5,13.5
30-05-2023,13.75,13.75,13.1,13.4
31-05-2023,13.55,13.55,12.6,12.9
01-06-2023,13.0,13.25,12.9,13.15
02-06-2023,13.2,13.25,12.95,12.95
05-06-2023,13.2,13.3,12.95,13.05
06-06-2023,13.25,13.25,12.85,12.9
07-06-2023,12.9,13.95,12.9,13.4
08-06-2023,13.4,13.75,12.95,13.0
09-06-2023,13.0,13.4,13.0,13.2
12-06-2023,13.1,13.4,13.05,13.15
13-06-2023,13.1,13.5,13.1,13.25
14-06-2023,13.2,13.8,13.05,13.6
15-06-2023,13.75,13.8,13.15,13.25
16-06-2023,13.25,13.5,13.1,13.45
19-06-2023,13.25,13.7,13.15,13.2
20-06-2023,13.35,13.6,13.15,13.4
21-06-2023,13.4,13.6,13.2,13.4
22-06-2023,13.6,13.65,13.2,13.25
23-06-2023,13.25,13.25,13.0,13.1
26-06-2023,13.25,13.5,13.05,13.25
27-06-2023,13.25,13.45,13.1,13.15
28-06-2023,13.1,13.25,13.05,13.05
30-06-2023,12.95,13.5,12.95,13.2
03-07-2023,13.45,13.45,13.15,13.4
04-07-2023,13.5,13.5,13.15,13.2
05-07-2023,13.2,13.5,13.15,13.2
06-07-2023,13.2,13.35,13.1,13.25
07-07-2023,13.25,13.3,12.55,12.9
10-07-2023,12.9,13.0,12.75,12.8
11-07-2023,12.8,13.0,12.7,12.8
12-07-2023,13.0,13.0,12.6,12.7
13-07-2023,12.75,12.85,12.65,12.7
14-07-2023,12.7,12.8,12.6,12.65
17-07-2023,12.6,12.9,12.6,12.75
18-07-2023,12.7,12.85,12.55,12.6
19-07-2023,12.6,12.75,12.55,12.65
20-07-2023,12.75,12.75,12.45,12.55
21-07-2023,12.5,12.6,12.5,12.5
24-07-2023,12.5,12.5,12.25,12.3
25-07-2023,12.4,12.6,12.3,12.45
26-07-2023,12.5,12.55,12.35,12.5
27-07-2023,12.6,12.6,12.4,12.4
28-07-2023,12.4,12.5,12.25,12.35
31-07-2023,12.35,12.55,12.3,12.35
01-08-2023,12.5,12.6,12.35,12.45
02-08-2023,12.5,12.5,12.2,12.2
03-08-2023,12.4,12.4,12.15,12.25
04-08-2023,12.45,12.45,12.25,12.3
07-08-2023,12.2,12.4,12.15,12.15
08-08-2023,12.15,12.4,12.15,12.25
09-08-2023,12.25,12.35,12.1,12.2
10-08-2023,12.2,12.3,12.15,12.15
11-08-2023,12.25,13.5,12.15,12.9
14-08-2023,12.9,13.2,12.6,12.75
16-08-2023,12.6,13.9,12.6,13.5
17-08-2023,13.6,13.8,13.25,13.35
18-08-2023,13.35,13.5,12.95,13.05
21-08-2023,13.25,13.4,13.0,13.1
22-08-2023,13.2,13.8,12.95,13.05
23-08-2023,13.15,13.75,13.1,13.25
24-08-2023,13.3,13.5,13.15,13.3
25-08-2023,13.35,13.7,13.15,13.45
28-08-2023,13.5,13.6,13.0,13.2
29-08-2023,13.2,13.4,13.05,13.1
30-08-2023,13.25,13.45,13.0,13.1
31-08-2023,13.1,13.3,12.9,12.95
01-09-2023,13.0,13.15,12.95,13.05
04-09-2023,13.1,13.45,13.0,13.25
05-09-2023,13.45,15.9,13.35,15.9
06-09-2023,16.1,17.4,15.05,16.75
07-09-2023,17.05,18.55,16.6,17.0
08-09-2023,17.4,17.4,16.1,16.25
11-09-2023,16.5,16.65,16.05,16.15
12-09-2023,16.35,16.35,14.8,14.95
13-09-2023,14.85,15.8,14.55,15.65
14-09-2023,15.95,16.0,15.5,15.55
15-09-2023,15.5,16.5,15.4,16.2
18-09-2023,16.45,16.45,15.5,15.75
20-09-2023,15.7,15.7,15.05,15.2
21-09-2023,15.15,15.75,15.1,15.2
22-09-2023,15.2,15.4,14.95,15.05
25-09-2023,15.3,15.65,15.15,15.4
26-09-2023,15.5,15.5,15.05,15.1
27-09-2023,15.3,15.4,14.8,15.0
28-09-2023,15.0,15.3,14.75,14.8
29-09-2023,14.8,15.0,14.6,14.7
03-10-2023,14.8,15.0,14.6,14.85
04-10-2023,15.0,15.0,14.8,14.95
05-10-2023,14.9,15.0,14.55,14.7
06-10-2023,14.95,15.25,14.75,15.05
09-10-2023,15.05,15.15,14.6,14.7
10-10-2023,14.9,15.05,14.4,14.6
11-10-2023,14.65,16.3,14.6,16.15
12-10-2023,16.4,16.4,15.5,15.9
13-10-2023,16.0,16.0,15.5,15.55
16-10-2023,15.8,16.0,15.15,15.4
17-10-2023,15.45,15.7,15.25,15.35
18-10-2023,15.35,15.5,14.95,15.1
19-10-2023,15.1,15.2,14.8,14.95
20-10-2023,15.05,15.4,14.8,15.0
23-10-2023,15.2,15.2,13.55,13.8
25-10-2023,14.05,14.55,13.8,14.05
26-10-2023,13.85,14.1,13.25,13.5
27-10-2023,13.5,14.1,13.5,13.7
30-10-2023,13.7,14.1,13.65,13.75
31-10-2023,13.75,13.95,13.6,13.8
01-11-2023,14.0,14.1,13.7,13.8
02-11-2023,13.8,14.2,13.8,13.9
03-11-2023,14.1,14.4,14.0,14.05
06-11-2023,14.0,14.7,14.0,14.5
07-11-2023,14.7,14.7,14.4,14.45
08-11-2023,14.75,15.05,14.6,14.8
09-11-2023,14.75,15.05,14.35,14.45
10-11-2023,14.65,16.2,14.45,15.65
12-11-2023,15.6,16.2,15.6,15.75
13-11-2023,15.7,15.8,15.3,15.45
15-11-2023,15.5,15.75,15.25,15.35
16-11-2023,15.35,15.45,15.05,15.2
17-11-2023,15.1,15.75,14.95,15.5
20-11-2023,15.35,17.8,15.35,16.95
21-11-2023,17.75,18.2,17.3,17.95
22-11-2023,18.15,18.15,16.4,16.7
23-11-2023,16.7,17.15,16.5,16.7
24-11-2023,16.9,17.3,16.8,17.05
28-11-2023,17.45,17.5,16.6,16.75
29-11-2023,17.0,17.0,16.5,16.55
30-11-2023,16.6,16.75,15.8,15.95
01-12-2023,16.2,16.5,15.9,16.15
04-12-2023,16.5,16.5,16.05,16.15
05-12-2023,16.3,16.35,15.75,16.05
06-12-2023,16.4,17.6,16.35,17.0
07-12-2023,17.2,17.65,16.5,17.1
08-12-2023,17.35,17.35,16.65,16.75
11-12-2023,17.0,17.0,16.45,16.55
12-12-2023,16.75,16.95,16.35,16.45
13-12-2023,16.6,16.75,16.2,16.4
14-12-2023,16.5,16.8,16.15,16.35
15-12-2023,16.5,16.5,16.15,16.2
18-12-2023,16.25,19.4,16.25,18.9
19-12-2023,19.6,19.8,18.05,18.95
20-12-2023,18.7,19.8,17.9,18.15
21-12-2023,18.4,19.3,17.6,18.95
22-12-2023,19.35,19.35,18.15,18.35
26-12-2023,18.6,18.85,17.75,18.2
27-12-2023,18.25,18.7,17.3,17.5
28-12-2023,17.6,17.7,16.5,16.65
29-12-2023,16.8,17.95,16.75,17.5
01-01-2024,17.7,19.05,17.55,18.3
02-01-2024,18.75,20.8,18.45,20.25
03-01-2024,20.45,20.7,19.6,19.85
04-01-2024,19.9,20.2,19.45,19.55
05-01-2024,19.6,19.8,18.4,19.25
08-01-2024,19.25,20.2,19.05,19.65
09-01-2024,19.8,20.7,19.25,20.35
10-01-2024,20.05,20.45,19.8,19.95
11-01-2024,19.95,20.2,19.45,19.7
12-01-2024,19.7,20.4,19.2,19.35
15-01-2024,19.45,20.55,19.3,19.95
16-01-2024,20.55,20.6,19.0,19.55
17-01-2024,19.55,19.8,18.85,19.15
18-01-2024,19.05,19.8,18.4,19.2
19-01-2024,19.4,20.4,19.15,19.75
20-01-2024,20.0,20.1,19.4,19.5
23-01-2024,19.5,19.75,17.9,18.25
24-01-2024,18.3,18.6,17.7,17.9
25-01-2024,18.05,18.95,18.0,18.55
29-01-2024,18.85,19.35,18.35,18.55
30-01-2024,18.8,19.9,18.1,19.3
31-01-2024,19.3,19.8,18.85,18.95
01-02-2024,19.25,19.4,18.5,18.65
02-02-2024,18.85,19.2,18.4,18.5
05-02-2024,18.7,19.35,18.0,18.15
06-02-2024,18.45,21.75,18.0,21.75
07-02-2024,21.9,24.35,20.5,23.05
08-02-2024,23.7,23.9,22.4,23.35
09-02-2024,24.0,24.0,21.0,21.95
12-02-2024,22.0,22.4,19.3,19.65
13-02-2024,19.05,20.15,18.7,19.25
14-02-2024,18.85,20.4,18.85,20.25
15-02-2024,20.85,21.2,20.45,20.7
16-02-2024,21.05,21.7,20.85,21.25
19-02-2024,21.65,21.65,20.6,20.7
20-02-2024,20.7,21.15,20.0,20.15
21-02-2024,20.25,21.0,19.45,19.7
22-02-2024,19.9,20.85,19.2,20.35
23-02-2024,20.5,20.7,19.8,19.9
26-02-2024,20.0,20.1,19.0,19.2
27-02-2024,19.35,19.95,18.55,18.9
28-02-2024,19.0,19.3,17.9,18.3
29-02-2024,18.3,18.5,17.95,18.35
01-03-2024,18.55,19.35,18.3,19.15
02-03-2024,19.4,19.8,19.0,19.3
04-03-2024,19.3,20.5,18.6,19.6
05-03-2024,19.6,20.7,19.15,19.4
06-03-2024,19.5,19.6,18.35,18.85
07-03-2024,18.6,19.2,18.6,18.75
11-03-2024,18.95,18.95,17.9,18.2
12-03-2024,18.15,18.25,16.6,16.85
13-03-2024,16.6,17.05,15.2,15.4
14-03-2024,15.3,16.15,14.8,15.75
15-03-2024,15.9,16.3,15.55,15.9
18-03-2024,15.65,16.3,15.6,15.95
19-03-2024,15.65,16.1,15.15,15.35
20-03-2024,15.25,15.65,14.55,14.9
21-03-2024,15.0,16.5,14.95,16.05
22-03-2024,16.05,16.15,15.6,15.75
26-03-2024,16.0,16.15,15.4,15.5
27-03-2024,15.4,15.75,14.5,14.8
28-03-2024,15.0,15.45,14.55,14.65
01-04-2024,14.5,16.2,14.4,16.1
02-04-2024,16.05,16.75,15.8,16.6
03-04-2024,16.95,17.6,16.55,17.3
04-04-2024,17.95,20.2,17.1,19.55
05-04-2024,19.55,21.25,18.8,20.85
08-04-2024,21.55,21.55,19.6,19.75
09-04-2024,19.95,20.9,19.4,19.5
10-04-2024,19.55,20.2,19.2,19.35
12-04-2024,19.05,19.9,18.3,18.9
15-04-2024,17.8,19.3,17.3,19.1
16-04-2024,19.1,21.0,18.5,21.0
18-04-2024,21.4,23.1,21.15,22.15
19-04-2024,22.0,22.25,20.9,22.1
22-04-2024,23.05,23.2,21.6,22.45
23-04-2024,22.05,22.9,21.8,22.05
24-04-2024,22.0,22.5,21.9,22.0
25-04-2024,22.25,22.25,21.0,21.35
26-04-2024,21.35,21.8,21.35,21.6
29-04-2024,21.95,21.95,21.5,21.7
30-04-2024,22.0,22.7,21.65,22.05
02-05-2024,22.35,23.25,21.15,22.9
03-05-2024,22.95,23.0,22.4,22.6
06-05-2024,22.75,22.85,22.15,22.45
07-05-2024,23.0,23.0,21.8,22.1
08-05-2024,22.5,22.7,21.95,22.05
09-05-2024,22.2,22.25,20.15,20.8
10-05-2024,20.4,20.85,20.15,20.6
13-05-2024,20.6,20.85,19.6,20.2
14-05-2024,19.8,22.05,19.7,21.55
15-05-2024,21.75,22.25,21.0,21.5
16-05-2024,21.9,21.9,21.0,21.05
17-05-2024,20.6,22.2,20.6,21.45
18-05-2024,21.45,21.85,21.0,21.4
21-05-2024,21.0,22.0,20.5,21.25
22-05-2024,21.4,21.45,20.7,21.0
23-05-2024,21.05,21.35,20.6,20.7
24-05-2024,20.95,21.05,20.3,20.55
27-05-2024,20.6,20.9,20.1,20.25
28-05-2024,20.0,20.45,19.85,19.9
29-05-2024,19.7,21.1,19.7,20.7
30-05-2024,20.95,21.1,19.65,20.1
31-05-2024,20.0,20.3,19.55,19.7
03-06-2024,19.75,20.45,19.65,19.8
04-06-2024,20.15,20.15,17.85,18.35
05-06-2024,18.35,18.9,17.5,18.3
06-06-2024,18.45,19.85,18.35,19.55
07-06-2024,19.9,21.5,19.4,20.0
10-06-2024,20.9,20.9,20.01,20.21
11-06-2024,20.38,20.8,19.87,20.21
12-06-2024,20.25,20.5,19.56,19.97
13-06-2024,20.28,20.28,19.85,19.91
14-06-2024,19.95,20.9,19.88,20.02
18-06-2024,20.05,20.49,19.5,19.63
19-06-2024,19.85,19.85,19.01,19.18
20-06-2024,19.38,19.58,19.0,19.09
21-06-2024,19.3,19.53,19.05,19.46
